4.761904761904762 0.004119873046875 -0.004302978515625
4.761927437641724 0.000946044921875 -0.004669189453125
4.761950113378685 0.0009765625 -0.00433349609375
4.761972789115648 0.002227783203125 -0.0048828125
4.761995464852608 0.001251220703125 -0.004486083984375
4.762018140589569 0.001129150390625 -0.004425048828125
4.762040816326531 -0.0001220703125 -0.004669189453125
4.762063492063492 0.000274658203125 -0.0045166015625
4.762086167800454 0.00054931640625 -0.004669189453125
4.7621088435374155 -0.001861572265625 -0.004486083984375
4.7621315192743765 -0.001556396484375 -0.004425048828125
4.7621541950113375 0.003631591796875 -0.004547119140625
4.762176870748299 -0.00262451171875 -0.004364013671875
4.7621995464852604 -0.002777099609375 -0.004364013671875
4.762222222222222 -0.000946044921875 -0.004364013671875
4.762244897959183 0.001953125 -0.00433349609375
4.762267573696144 -0.000579833984375 -0.00433349609375
4.762290249433105 0.00054931640625 -0.004241943359375
4.762312925170068 -0.001373291015625 -0.00421142578125
4.762335600907029 0.001373291015625 -0.00445556640625
4.762358276643991 0.001434326171875 -0.00445556640625
4.762380952380952 -0.002410888671875 -0.00433349609375
4.762403628117913 0.00177001953125 -0.004425048828125
4.762426303854875 -0.001983642578125 -0.0045166015625
4.762448979591837 0.001678466796875 -0.0042724609375
4.762471655328798 -6.103515625e-05 -0.00433349609375
4.76249433106576 -0.00115966796875 -0.004364013671875
4.762517006802721 0.000518798828125 -0.004791259765625
4.762539682539682 9.1552734375e-05 -0.004730224609375
4.762562358276644 -0.00299072265625 -0.00421142578125
4.762585034013606 -0.00091552734375 -0.004669189453125
4.762607709750567 -0.000152587890625 -0.00469970703125
4.762630385487529 -0.001068115234375 -0.00482177734375
4.76265306122449 -0.000213623046875 -0.004486083984375
4.762675736961452 0.004425048828125 -0.0045166015625
4.762698412698413 0.0045166015625 -0.0045166015625
4.7627210884353754 -0.0010986328125 -0.004364013671875
4.762743764172336 -0.0025634765625 -0.00445556640625
4.7627664399092975 -0.0013427734375 -0.004669189453125
4.7627891156462585 -0.0009765625 -0.00469970703125
4.76281179138322 0.001007080078125 -0.00445556640625
4.7628344671201805 0.0015869140625 -0.00457763671875
4.7628571428571425 0.003387451171875 -0.004364013671875
4.762879818594104 0.00299072265625 -0.004364013671875
4.7629024943310645 -0.000152587890625 -0.00445556640625
4.762925170068027 0.00030517578125 -0.004241943359375
4.762947845804988 0.000152587890625 -0.004364013671875
4.76297052154195 3.0517578125e-05 -0.004058837890625
4.762993197278911 -0.00128173828125 -0.004302978515625
4.763015873015873 0.00018310546875 -0.00445556640625
4.763038548752833 0.000396728515625 -0.004486083984375
4.763061224489796 0.001800537109375 -0.004638671875
4.763083900226757 0.00341796875 -0.00433349609375
4.763106575963719 0.0 -0.004150390625
4.76312925170068 -0.0018310546875 -0.003997802734375
4.763151927437642 0.00201416015625 -0.004119873046875
4.763174603174602 0.00067138671875 -0.00421142578125
4.763197278911565 0.004119873046875 -0.00421142578125
4.763219954648526 0.00323486328125 -0.00421142578125
4.763242630385488 -0.002410888671875 -0.004241943359375
4.763265306122449 -0.00042724609375 -0.004425048828125
4.763287981859411 0.000244140625 -0.00445556640625
4.763310657596372 -0.0018310546875 -0.00439453125
4.763333333333334 -0.0018310546875 -0.00421142578125
4.7633560090702955 0.002288818359375 -0.004302978515625
4.763378684807257 0.0023193359375 -0.00433349609375
4.763401360544218 -0.000457763671875 -0.00439453125
4.7634240362811795 0.001434326171875 -0.0042724609375
4.7634467120181405 -0.0001220703125 -0.003875732421875
4.763469387755102 0.0013427734375 -0.00384521484375
4.763492063492064 -0.00238037109375 -0.00433349609375
4.7635147392290245 0.001708984375 -0.00408935546875
4.7635374149659855 0.002593994140625 -0.0040283203125
4.763560090702948 -0.001922607421875 -0.003997802734375
4.763582766439908 0.0006103515625 -0.00421142578125
4.76360544217687 0.0050048828125 -0.004119873046875
4.763628117913832 -0.00286865234375 -0.00433349609375
4.763650793650792 0.001739501953125 -0.0042724609375
4.763673469387755 -0.0023193359375 -0.0042724609375
4.763696145124716 -0.004150390625 -0.0037841796875
4.763718820861678 -0.0035400390625 -0.003753662109375
4.763741496598639 0.003692626953125 -0.0037841796875
4.763764172335601 0.000335693359375 -0.00372314453125
4.763786848072562 -0.004638671875 -0.003692626953125
4.763809523809524 -0.001373291015625 -0.0040283203125
4.763832199546485 0.001007080078125 -0.003692626953125
4.763854875283447 -0.001800537109375 -0.003936767578125
4.763877551020408 -0.002166748046875 -0.00396728515625
4.76390022675737 0.0013427734375 -0.003875732421875
4.763922902494331 -0.002197265625 -0.00390625
4.763945578231293 0.001708984375 -0.003631591796875
4.763968253968254 0.00146484375 -0.003570556640625
4.763990929705216 -0.002685546875 -0.003662109375
4.764013605442177 -0.0013427734375 -0.003875732421875
4.764036281179139 0.002838134765625 -0.0035400390625
4.7640589569161 0.002960205078125 -0.00360107421875
4.7640816326530615 0.001495361328125 -0.004180908203125
4.764104308390023 0.0 -0.003662109375
4.764126984126984 -0.000640869140625 -0.00372314453125
4.7641496598639455 -0.002166748046875 -0.003997802734375
4.764172335600907 0.0006103515625 -0.004058837890625
4.764195011337868 -0.0018310546875 -0.004058837890625
4.76421768707483 -0.002227783203125 -0.004058837890625
4.764240362811791 0.002716064453125 -0.003631591796875
4.764263038548753 0.002777099609375 -0.003509521484375
4.764285714285713 -0.000457763671875 -0.0037841796875
4.764308390022676 -0.001068115234375 -0.00372314453125
4.764331065759637 0.003204345703125 -0.003753662109375
4.764353741496599 -0.003509521484375 -0.003662109375
4.76437641723356 0.00115966796875 -0.003570556640625
4.764399092970521 0.00103759765625 -0.003570556640625
4.764421768707483 -0.002899169921875 -0.0035400390625
4.764444444444444 -0.001953125 -0.003448486328125
4.764467120181406 -0.002960205078125 -0.003509521484375
4.764489795918367 -0.000946044921875 -0.00341796875
4.764512471655329 0.002593994140625 -0.003509521484375
4.76453514739229 -0.001861572265625 -0.00341796875
4.764557823129252 -0.002349853515625 -0.00341796875
4.764580498866213 0.001220703125 -0.00372314453125
4.764603174603176 -0.00244140625 -0.003814697265625
4.764625850340136 -0.00054931640625 -0.00335693359375
4.764648526077098 0.0010986328125 -0.003265380859375
4.764671201814059 -0.00244140625 -0.00335693359375
4.764693877551021 0.00372314453125 -0.003753662109375
4.764716553287982 -0.000152587890625 -0.003692626953125
4.764739229024944 -0.000579833984375 -0.003662109375
4.7647619047619045 -0.00238037109375 -0.003509521484375
4.7647845804988656 -0.00042724609375 -0.003448486328125
4.7648072562358275 0.00042724609375 -0.003387451171875
4.7648299319727885 -0.001251220703125 -0.00341796875
4.76485260770975 -0.0013427734375 -0.00372314453125
4.764875283446712 0.002044677734375 -0.0032958984375
4.764897959183672 0.002349853515625 -0.003265380859375
4.764920634920635 -0.000823974609375 -0.003387451171875
4.764943310657596 -0.001739501953125 -0.00360107421875
4.764965986394558 0.002227783203125 -0.003570556640625
4.764988662131519 -0.000732421875 -0.003448486328125
4.765011337868481 -0.001983642578125 -0.003753662109375
4.765034013605441 -0.00152587890625 -0.003662109375
4.765056689342404 -0.000457763671875 -0.00311279296875
4.765079365079365 6.103515625e-05 -0.00311279296875
4.765102040816327 0.004241943359375 -0.003143310546875
4.765124716553288 0.001129150390625 -0.00299072265625
4.76514739229025 0.0 -0.00335693359375
4.76517006802721 -0.00067138671875 -0.00341796875
4.765192743764172 6.103515625e-05 -0.00347900390625
4.765215419501134 0.000274658203125 -0.00299072265625
4.765238095238095 0.000335693359375 -0.002960205078125
4.765260770975057 0.0023193359375 -0.00341796875
4.765283446712018 9.1552734375e-05 -0.003387451171875
4.76530612244898 -0.00079345703125 -0.00335693359375
4.765328798185941 0.000213623046875 -0.00335693359375
4.7653514739229035 0.00335693359375 -0.003326416015625
4.765374149659864 6.103515625e-05 -0.0035400390625
4.7653968253968255 -0.000762939453125 -0.00347900390625
4.7654195011337865 -0.0009765625 -0.003448486328125
4.7654421768707484 -0.002471923828125 -0.003204345703125
4.765464852607709 0.000335693359375 -0.003204345703125
4.765487528344671 0.002716064453125 -0.003265380859375
4.765510204081632 -0.00347900390625 -0.0032958984375
4.765532879818593 -0.001953125 -0.0032958984375
4.765555555555555 -0.001983642578125 -0.002960205078125
4.765578231292517 -0.002044677734375 -0.0029296875
4.765600907029478 -0.0008544921875 -0.003265380859375
4.76562358276644 -0.001251220703125 -0.00347900390625
4.765646258503401 -0.001556396484375 -0.00323486328125
4.765668934240363 -0.000244140625 -0.003265380859375
4.765691609977324 0.00048828125 -0.0029296875
4.765714285714286 -0.00390625 -0.003082275390625
4.765736961451247 -0.000457763671875 -0.00323486328125
4.765759637188209 0.0 -0.00323486328125
4.76578231292517 0.000946044921875 -0.003173828125
4.765804988662132 -0.00469970703125 -0.0030517578125
4.765827664399093 -0.001312255859375 -0.003143310546875
4.765850340136055 -0.001556396484375 -0.00323486328125
4.765873015873016 -0.000946044921875 -0.003326416015625
4.765895691609978 -0.002197265625 -0.0035400390625
4.765918367346939 -0.002105712890625 -0.0035400390625
4.765941043083901 0.00091552734375 -0.003265380859375
4.765963718820862 -0.003570556640625 -0.003326416015625
4.765986394557824 -0.0010986328125 -0.003173828125
4.766009070294785 -0.002471923828125 -0.003326416015625
4.766031746031746 -0.000335693359375 -0.003204345703125
4.766054421768708 0.003021240234375 -0.003173828125
4.7660770975056685 -0.005462646484375 -0.0035400390625
4.7660997732426305 -0.004547119140625 -0.0035400390625
4.766122448979592 0.001800537109375 -0.003387451171875
4.7661451247165525 -0.000518798828125 -0.0032958984375
4.7661678004535135 -0.001068115234375 -0.00323486328125
4.766190476190476 -0.00341796875 -0.00323486328125
4.766213151927436 0.0 -0.003143310546875
4.766235827664399 -0.006072998046875 -0.003448486328125
4.76625850340136 -0.00616455078125 -0.00341796875
4.766281179138321 0.00146484375 -0.0030517578125
4.766303854875283 -0.00042724609375 -0.003448486328125
4.766326530612245 -0.00299072265625 -0.003387451171875
4.766349206349206 -0.000762939453125 -0.00335693359375
4.766371882086168 -0.000640869140625 -0.00335693359375
4.766394557823129 -0.003143310546875 -0.003387451171875
4.76641723356009 0.0018310546875 -0.0035400390625
4.766439909297052 0.0018310546875 -0.003570556640625
4.766462585034014 -0.000274658203125 -0.00360107421875
4.766485260770975 -0.0020751953125 -0.00347900390625
4.766507936507937 0.0003662109375 -0.003692626953125
4.766530612244898 -0.0035400390625 -0.00347900390625
4.76655328798186 -0.001495361328125 -0.0032958984375
4.766575963718821 0.000274658203125 -0.003662109375
4.7665986394557835 0.000335693359375 -0.003662109375
4.766621315192744 -0.000213623046875 -0.003387451171875
4.766643990929706 -0.001739501953125 -0.0035400390625
4.766666666666667 -0.001922607421875 -0.00360107421875
4.7666893424036285 0.0006103515625 -0.003387451171875
4.7667120181405895 0.00042724609375 -0.00372314453125
4.766734693877552 0.00213623046875 -0.00347900390625
4.766757369614512 0.002471923828125 -0.003448486328125
4.7667800453514735 0.000946044921875 -0.00372314453125
4.766802721088435 -0.002532958984375 -0.003662109375
4.766825396825396 0.0001220703125 -0.003814697265625
4.766848072562358 -0.002044677734375 -0.0035400390625
4.766870748299319 0.00140380859375 -0.003387451171875
4.76689342403628 -0.00262451171875 -0.003631591796875
4.766916099773241 0.00360107421875 -0.003509521484375
4.766938775510204 0.003570556640625 -0.00347900390625
4.766961451247165 -0.003448486328125 -0.00335693359375
4.766984126984127 -0.0020751953125 -0.003204345703125
4.767006802721088 -3.0517578125e-05 -0.0032958984375
4.76702947845805 -0.002105712890625 -0.003448486328125
4.767052154195011 0.00079345703125 -0.003509521484375
4.767074829931973 0.0006103515625 -0.0035400390625
4.767097505668934 0.00048828125 -0.003570556640625
4.767120181405896 0.00140380859375 -0.003570556640625
4.767142857142857 -0.001708984375 -0.0032958984375
4.767165532879819 -0.0028076171875 -0.003082275390625
4.76718820861678 -0.001373291015625 -0.003173828125
4.767210884353742 -0.001373291015625 -0.0035400390625
4.767233560090703 -0.00146484375 -0.003448486328125
4.767256235827665 -0.001495361328125 -0.003326416015625
4.767278911564626 -0.00164794921875 -0.0032958984375
4.767301587301588 -0.0025634765625 -0.003265380859375
4.767324263038549 -0.00054931640625 -0.00341796875
4.767346938775511 0.00030517578125 -0.00335693359375
4.767369614512472 -0.00030517578125 -0.003448486328125
4.7673922902494335 -0.0003662109375 -0.003387451171875
4.767414965986394 -0.00482177734375 -0.00335693359375
4.767437641723356 -0.00537109375 -0.00335693359375
4.7674603174603165 0.001556396484375 -0.003265380859375
4.767482993197279 -0.003143310546875 -0.003173828125
4.76750566893424 0.0018310546875 -0.00341796875
4.767528344671201 -0.000396728515625 -0.003509521484375
4.767551020408163 -0.0010986328125 -0.003692626953125
4.767573696145124 -0.002655029296875 -0.003387451171875
4.767596371882086 -0.002471923828125 -0.00360107421875
4.767619047619047 -0.002471923828125 -0.00360107421875
4.767641723356009 -0.001800537109375 -0.003631591796875
4.767664399092969 -0.00140380859375 -0.0037841796875
4.767687074829932 -0.002685546875 -0.00341796875
4.767709750566893 0.001068115234375 -0.00335693359375
4.767732426303855 -0.003173828125 -0.003570556640625
4.767755102040816 0.000732421875 -0.003448486328125
4.767777777777778 0.00128173828125 -0.003448486328125
4.767800453514738 -0.00140380859375 -0.00347900390625
4.767823129251701 0.000244140625 -0.003448486328125
4.767845804988662 -0.000946044921875 -0.00360107421875
4.767868480725624 0.0001220703125 -0.003448486328125
4.767891156462585 -0.002532958984375 -0.003173828125
4.767913832199547 -0.0015869140625 -0.003448486328125
4.767936507936508 -3.0517578125e-05 -0.003448486328125
4.76795918367347 -0.000244140625 -0.00347900390625
4.7679818594104315 -0.00238037109375 -0.003692626953125
4.7680045351473925 -0.00030517578125 -0.003204345703125
4.7680272108843536 -0.003082275390625 -0.00347900390625
4.7680498866213155 -0.00140380859375 -0.0035400390625
4.7680725623582765 0.00164794921875 -0.003662109375
4.768095238095238 -0.00335693359375 -0.00323486328125
4.7681179138322 -0.003936767578125 -0.003204345703125
4.76814058956916 -0.00201416015625 -0.003265380859375
4.7681632653061214 0.000885009765625 -0.0030517578125
4.768185941043084 -0.00189208984375 -0.00323486328125
4.768208616780044 0.0023193359375 -0.003387451171875
4.768231292517007 -0.004241943359375 -0.00335693359375
4.768253968253968 -0.001983642578125 -0.00335693359375
4.768276643990929 -0.001220703125 -0.003143310546875
4.768299319727891 -0.00115966796875 -0.003143310546875
4.768321995464853 -0.00164794921875 -0.0032958984375
4.768344671201814 -0.0030517578125 -0.00311279296875
4.768367346938776 0.00201416015625 -0.00323486328125
4.768390022675737 -0.00079345703125 -0.003143310546875
4.768412698412698 -0.0030517578125 -0.00335693359375
4.76843537414966 -0.004425048828125 -0.003204345703125
4.768458049886621 -0.0045166015625 -0.003204345703125
4.768480725623583 -0.00244140625 -0.003265380859375
4.768503401360544 -0.000152587890625 -0.003143310546875
4.768526077097506 -0.001129150390625 -0.0028076171875
4.768548752834467 -0.002197265625 -0.003082275390625
4.768571428571429 -0.000732421875 -0.00299072265625
4.76859410430839 -0.00433349609375 -0.00311279296875
4.768616780045352 0.001495361328125 -0.0029296875
4.768639455782313 0.001190185546875 -0.0029296875
4.7686621315192745 -0.002410888671875 -0.003021240234375
4.768684807256236 -0.002410888671875 -0.00311279296875
4.768707482993197 -0.000885009765625 -0.003143310546875
4.7687301587301585 0.000457763671875 -0.003326416015625
4.76875283446712 -0.00067138671875 -0.003021240234375
4.768775510204081 -0.001312255859375 -0.00274658203125
4.768798185941043 -0.001373291015625 -0.00274658203125
4.768820861678004 -0.00103759765625 -0.002716064453125
4.768843537414966 -0.0010986328125 -0.00262451171875
4.768866213151927 0.000396728515625 -0.003082275390625
4.768888888888889 -0.000762939453125 -0.002777099609375
4.768911564625849 0.000457763671875 -0.002655029296875
4.768934240362812 -0.002532958984375 -0.002899169921875
4.768956916099773 -0.003387451171875 -0.002899169921875
4.768979591836735 -0.00347900390625 -0.00286865234375
4.769002267573696 -0.00286865234375 -0.002777099609375
4.769024943310658 -0.00079345703125 -0.00262451171875
4.769047619047618 -0.00445556640625 -0.00299072265625
4.769070294784581 -0.001739501953125 -0.002838134765625
4.769092970521542 0.001007080078125 -0.00262451171875
4.769115646258504 -0.004608154296875 -0.002899169921875
4.769138321995465 -0.004669189453125 -0.0029296875
4.769160997732427 0.002838134765625 -0.002899169921875
4.769183673469388 -0.0035400390625 -0.002655029296875
4.769206349206349 -0.00177001953125 -0.002716064453125
4.769229024943312 0.00115966796875 -0.002655029296875
4.769251700680272 -0.001861572265625 -0.002777099609375
4.769274376417234 0.000274658203125 -0.0025634765625
4.769297052154195 -0.003143310546875 -0.0025634765625
4.7693197278911565 -0.003082275390625 -0.002532958984375
4.769342403628118 -0.001739501953125 -0.00238037109375
4.76936507936508 -0.002197265625 -0.002777099609375
4.76938775510204 -0.00274658203125 -0.0025634765625
4.7694104308390015 -0.0025634765625 -0.00244140625
4.769433106575963 -0.002288818359375 -0.0025634765625
4.769455782312924 -0.0050048828125 -0.002593994140625
4.769478458049886 -0.004791259765625 -0.0025634765625
4.769501133786848 0.002777099609375 -0.002227783203125
4.769523809523808 0.001129150390625 -0.00238037109375
4.769546485260771 -0.0035400390625 -0.002655029296875
4.769569160997732 -0.00286865234375 -0.00262451171875
4.769591836734694 -0.00030517578125 -0.00250244140625
4.769614512471655 -0.006378173828125 -0.00286865234375
4.769637188208617 -0.00201416015625 -0.002349853515625
4.769659863945577 -0.00201416015625 -0.002349853515625
4.76968253968254 -0.001434326171875 -0.002410888671875
4.769705215419501 -0.000885009765625 -0.002655029296875
4.769727891156463 -0.003814697265625 -0.0029296875
4.769750566893424 -0.00140380859375 -0.002593994140625
4.769773242630386 -0.00128173828125 -0.002655029296875
4.769795918367347 -0.00042724609375 -0.002288818359375
4.769818594104309 -0.000701904296875 -0.002288818359375
4.76984126984127 -0.006561279296875 -0.00238037109375
4.769863945578232 -0.004638671875 -0.0023193359375
4.769886621315193 -0.0023193359375 -0.002227783203125
4.769909297052155 -0.002044677734375 -0.0025634765625
4.769931972789116 -0.00286865234375 -0.002716064453125
4.7699546485260775 -0.00042724609375 -0.00244140625
4.769977324263039 6.103515625e-05 -0.00238037109375
4.77 -0.00311279296875 -0.00225830078125
4.7700226757369615 -0.00152587890625 -0.00238037109375
4.7700453514739225 -0.00042724609375 -0.002227783203125
4.770068027210884 -0.002838134765625 -0.0023193359375
4.7700907029478445 -0.00347900390625 -0.0023193359375
4.770113378684807 -0.002532958984375 -0.00238037109375
4.770136054421768 -0.00091552734375 -0.00225830078125
4.770158730158729 -0.000885009765625 -0.00225830078125
4.770181405895691 -0.00213623046875 -0.002288818359375
4.770204081632653 -0.004180908203125 -0.00213623046875
4.770226757369614 -0.001708984375 -0.001922607421875
4.770249433106576 -0.000732421875 -0.00201416015625
4.770272108843537 -0.003875732421875 -0.001953125
4.770294784580499 0.000457763671875 -0.001800537109375
4.77031746031746 0.001129150390625 -0.00177001953125
4.770340136054422 -0.004486083984375 -0.001495361328125
4.770362811791383 -0.0015869140625 -0.0018310546875
4.770385487528345 -0.001953125 -0.00164794921875
4.770408163265306 -0.000518798828125 -0.00177001953125
4.770430839002268 -0.00579833984375 -0.00201416015625
4.770453514739229 0.00079345703125 -0.001983642578125
4.770476190476191 -0.0040283203125 -0.0020751953125
4.770498866213152 -0.003692626953125 -0.002044677734375
4.770521541950114 0.002777099609375 -0.001708984375
4.770544217687075 -0.0045166015625 -0.001861572265625
4.770566893424037 -0.00018310546875 -0.0015869140625
4.770589569160998 0.00018310546875 -0.00152587890625
4.77061224489796 -0.0047607421875 -0.00177001953125
4.770634920634921 -0.003326416015625 -0.00146484375
4.770657596371882 -0.002960205078125 -0.001434326171875
4.7706802721088435 -0.002777099609375 -0.001800537109375
4.7707029478458045 0.0006103515625 -0.001617431640625
4.770725623582766 -0.000274658203125 -0.001800537109375
4.770748299319728 -0.003662109375 -0.001800537109375
4.7707709750566885 -0.002166748046875 -0.001678466796875
4.7707936507936495 -0.0013427734375 -0.001617431640625
4.770816326530612 -0.001861572265625 -0.001495361328125
4.770839002267572 -0.001861572265625 -0.00146484375
4.770861678004535 -0.002197265625 -0.0013427734375
4.770884353741496 -0.00408935546875 -0.001495361328125
4.770907029478457 -0.00164794921875 -0.001434326171875
4.770929705215419 -0.00128173828125 -0.00128173828125
4.770952380952381 -0.00372314453125 -0.00152587890625
4.770975056689342 0.00244140625 -0.001312255859375
4.770997732426304 0.003082275390625 -0.00128173828125
4.771020408163265 -0.005126953125 -0.0015869140625
4.771043083900226 -0.0020751953125 -0.001556396484375
4.771065759637188 -0.00164794921875 -0.001678466796875
4.77108843537415 -0.000640869140625 -0.0013427734375
4.771111111111111 -0.005126953125 -0.001251220703125
4.771133786848073 -0.003173828125 -0.0013427734375
4.771156462585034 -0.001678466796875 -0.001190185546875
4.771179138321996 -0.001617431640625 -0.001190185546875
4.771201814058957 -0.001983642578125 -0.00146484375
4.7712244897959195 -0.0047607421875 -0.00128173828125
4.77124716553288 -0.003631591796875 -0.001312255859375
4.7712698412698415 -0.002288818359375 -0.0013427734375
4.771292517006803 -0.006072998046875 -0.001190185546875
4.7713151927437645 -0.004608154296875 -0.001007080078125
4.771337868480725 -0.00433349609375 -0.001007080078125
4.771360544217688 -0.005645751953125 -0.001373291015625
4.771383219954648 -0.000885009765625 -0.0010986328125
4.7714058956916094 -0.002197265625 -0.001129150390625
4.771428571428571 -0.004058837890625 -0.001129150390625
4.771451247165532 -0.0042724609375 -0.001068115234375
4.771473922902494 -0.002899169921875 -0.001220703125
4.771496598639456 -0.006927490234375 -0.00128173828125
4.771519274376417 -0.00640869140625 -0.001312255859375
4.771541950113379 0.000152587890625 -0.001434326171875
4.77156462585034 -0.001129150390625 -0.00146484375
4.771587301587301 -0.004058837890625 -0.001129150390625
4.771609977324263 -0.003631591796875 -0.001007080078125
4.771632653061224 -0.0023193359375 -0.001068115234375
4.771655328798186 -0.000640869140625 -0.00128173828125
4.771678004535147 -0.00054931640625 -0.00128173828125
4.771700680272109 -0.002349853515625 -0.0009765625
4.77172335600907 -0.005279541015625 -0.000823974609375
4.771746031746032 -0.002105712890625 -0.000885009765625
4.771768707482993 -0.001861572265625 -0.001068115234375
4.771791383219955 -0.00225830078125 -0.001251220703125
4.771814058956916 -0.005340576171875 -0.00091552734375
4.771836734693878 0.00323486328125 -0.0008544921875
4.77185941043084 0.00244140625 -0.00091552734375
4.771882086167801 -0.005584716796875 -0.001190185546875
4.771904761904762 -0.002288818359375 -0.00103759765625
4.771927437641724 -0.00201416015625 -0.001220703125
4.771950113378685 -0.000732421875 -0.001190185546875
4.7719727891156465 -0.00189208984375 -0.001251220703125
4.771995464852608 -0.000335693359375 -0.001068115234375
4.772018140589569 -0.000152587890625 -0.001068115234375
4.7720408163265295 -0.000885009765625 -0.001129150390625
4.772063492063492 -0.002288818359375 -0.00103759765625
4.7720861678004525 -0.00341796875 -0.000823974609375
4.772108843537415 -0.00250244140625 -0.00103759765625
4.772131519274376 -0.003021240234375 -0.001312255859375
4.772154195011337 -0.0023193359375 -0.001251220703125
4.772176870748299 -0.002960205078125 -0.001251220703125
4.772199546485261 -0.0029296875 -0.001220703125
4.772222222222222 -0.00341796875 -0.001129150390625
4.772244897959184 -0.005126953125 -0.000946044921875
4.772267573696145 -0.0023193359375 -0.000946044921875
4.772290249433106 -0.004150390625 -0.000946044921875
4.772312925170068 -0.003265380859375 -0.001129150390625
4.77233560090703 -0.007965087890625 -0.00091552734375
4.772358276643991 -0.008331298828125 -0.000885009765625
4.772380952380952 -0.005157470703125 -0.0008544921875
4.772403628117914 -0.0032958984375 -0.000762939453125
4.772426303854874 -0.0040283203125 -0.000640869140625
4.772448979591837 -0.00372314453125 -0.00079345703125
4.772471655328798 -0.000518798828125 -0.000946044921875
4.77249433106576 -0.00592041015625 -0.000823974609375
4.772517006802721 -0.000396728515625 -0.001220703125
4.772539682539683 -0.00054931640625 -0.001190185546875
4.772562358276644 -0.003265380859375 -0.00091552734375
4.772585034013606 -0.00335693359375 -0.001007080078125
4.7726077097505675 -0.001708984375 -0.0008544921875
4.772630385487528 -0.00213623046875 -0.00103759765625
4.7726530612244895 -0.00421142578125 -0.0009765625
4.772675736961451 -0.00531005859375 -0.00091552734375
4.772698412698412 -0.00518798828125 -0.000885009765625
4.772721088435374 -0.0023193359375 -0.000823974609375
4.772743764172335 -0.003143310546875 -0.000762939453125
4.772766439909296 -0.00543212890625 -0.000457763671875
4.772789115646257 -0.000946044921875 -0.000457763671875
4.77281179138322 -0.0003662109375 -0.000823974609375
4.772834467120181 -0.006622314453125 -0.000823974609375
4.772857142857143 -0.003265380859375 -0.000640869140625
4.772879818594104 -0.003204345703125 -0.000640869140625
4.772902494331065 -0.002197265625 -0.000732421875
4.772925170068027 -0.001708984375 -0.0006103515625
4.772947845804989 -0.00421142578125 -0.0008544921875
4.77297052154195 -0.000885009765625 -0.000701904296875
4.772993197278912 -0.00396728515625 -0.0006103515625
4.773015873015873 -0.00311279296875 -0.00067138671875
4.773038548752835 -0.002960205078125 -0.00067138671875
4.773061224489796 -0.002838134765625 -0.000457763671875
4.773083900226758 -0.00311279296875 -0.00079345703125
4.773106575963719 -0.001922607421875 -0.0008544921875
4.773129251700681 -0.00274658203125 -0.00091552734375
4.773151927437642 -0.00250244140625 -0.00091552734375
4.773174603174603 -0.001800537109375 -0.00054931640625
4.773197278911565 0.003570556640625 -0.0006103515625
4.773219954648526 0.0028076171875 -0.000701904296875
4.773242630385488 -0.0028076171875 -0.001068115234375
4.773265306122449 -0.00335693359375 -0.00091552734375
4.7732879818594105 -0.002899169921875 -0.00067138671875
4.773310657596372 -0.002593994140625 -0.0008544921875
4.7733333333333325 0.002349853515625 -0.001007080078125
4.7733560090702944 -0.002410888671875 -0.000701904296875
4.773378684807256 -0.002410888671875 -0.000732421875
4.7734013605442165 0.001190185546875 -0.001373291015625
4.773424036281179 -0.006072998046875 -0.001007080078125
4.77344671201814 -0.00433349609375 -0.000946044921875
4.773469387755102 -0.002166748046875 -0.00103759765625
4.773492063492063 -0.004608154296875 -0.000823974609375
4.773514739229025 -0.001983642578125 -0.000885009765625
4.773537414965985 -0.001434326171875 -0.000885009765625
4.773560090702948 -0.000640869140625 -0.000885009765625
4.773582766439909 -0.0035400390625 -0.001068115234375
4.773605442176871 -0.00372314453125 -0.00091552734375
4.773628117913832 -0.00335693359375 -0.000885009765625
4.773650793650794 -0.00323486328125 -0.000823974609375
4.773673469387754 -0.004302978515625 -0.000885009765625
4.773696145124717 -0.003936767578125 -0.00091552734375
4.773718820861678 -0.00347900390625 -0.00091552734375
4.77374149659864 0.000396728515625 -0.00079345703125
4.773764172335601 -0.004486083984375 -0.000946044921875
4.773786848072563 -0.004119873046875 -0.000823974609375
4.773809523809524 -0.00286865234375 -0.000732421875
4.773832199546486 -0.00274658203125 -0.00091552734375
4.7738548752834475 -0.00213623046875 -0.00115966796875
4.773877551020409 -0.002044677734375 -0.001190185546875
4.77390022675737 -0.005950927734375 -0.0013427734375
4.7739229024943315 -0.0023193359375 -0.001220703125
4.7739455782312925 -0.002288818359375 -0.001129150390625
4.7739682539682535 -0.00018310546875 -0.0010986328125
4.773990929705216 -0.003265380859375 -0.00115966796875
4.774013605442176 -0.00286865234375 -0.001434326171875
4.7740362811791375 -0.003936767578125 -0.000885009765625
4.774058956916099 -0.00408935546875 -0.000885009765625
4.77408163265306 -0.00408935546875 -0.001251220703125
4.774104308390022 -0.00244140625 -0.00115966796875
4.774126984126984 -0.003662109375 -0.0009765625
4.774149659863945 -0.001678466796875 -0.00128173828125
4.774172335600907 -0.005340576171875 -0.00128173828125
4.774195011337868 -0.0045166015625 -0.0013427734375
4.77421768707483 -0.004150390625 -0.0013427734375
4.774240362811791 -0.002105712890625 -0.001312255859375
4.774263038548753 -0.001739501953125 -0.001556396484375
4.774285714285714 -0.002777099609375 -0.001220703125
4.774308390022676 -0.0029296875 -0.00115966796875
4.774331065759637 -9.1552734375e-05 -0.001617431640625
4.774353741496599 -0.001678466796875 -0.0013427734375
4.77437641723356 -0.00408935546875 -0.001251220703125
4.774399092970522 -0.0037841796875 -0.001312255859375
4.774421768707483 -0.00042724609375 -0.001800537109375
4.774444444444445 -0.0023193359375 -0.00115966796875
4.774467120181406 -0.00408935546875 -0.0010986328125
4.774489795918368 -0.00341796875 -0.0013427734375
4.774512471655329 -0.00103759765625 -0.001312255859375
4.774535147392291 0.000732421875 -0.001678466796875
4.774557823129252 0.000885009765625 -0.001708984375
4.774580498866213 -0.001922607421875 -0.0015869140625
4.774603174603175 -0.003265380859375 -0.00146484375
4.774625850340136 -0.00457763671875 -0.00140380859375
4.774648526077097 -0.00439453125 -0.001312255859375
4.774671201814059 -0.003021240234375 -0.001220703125
4.77469387755102 -0.0009765625 -0.00128173828125
4.774716553287982 -0.004852294921875 -0.00152587890625
4.774739229024943 -0.004852294921875 -0.001556396484375
4.774761904761904 -0.00250244140625 -0.001617431640625
4.774784580498865 -0.0006103515625 -0.001556396484375
4.774807256235827 -0.00140380859375 -0.001251220703125
4.774829931972789 -0.00439453125 -0.001373291015625
4.77485260770975 -0.0029296875 -0.00164794921875
4.774875283446712 -0.0032958984375 -0.001556396484375
4.774897959183673 -0.00341796875 -0.001556396484375
4.774920634920635 -0.002227783203125 -0.00152587890625
4.774943310657596 -0.00244140625 -0.00128173828125
4.774965986394558 -0.003631591796875 -0.00177001953125
4.774988662131519 -0.0020751953125 -0.001373291015625
4.775011337868481 -0.00506591796875 -0.001129150390625
4.775034013605442 0.002105712890625 -0.001220703125
4.775056689342404 -0.005615234375 -0.00115966796875
4.775079365079365 -0.00531005859375 -0.00115966796875
4.775102040816328 -0.001373291015625 -0.001495361328125
4.775124716553288 -0.003875732421875 -0.00164794921875
4.77514739229025 -0.00030517578125 -0.001556396484375
4.775170068027211 -0.0042724609375 -0.001434326171875
4.775192743764173 -0.00537109375 -0.00146484375
4.775215419501134 -0.004302978515625 -0.001251220703125
4.775238095238096 -0.004058837890625 -0.001251220703125
4.7752607709750565 -0.000640869140625 -0.00140380859375
4.7752834467120175 -0.001129150390625 -0.001068115234375
4.7753061224489795 -0.0045166015625 -0.00115966796875
4.7753287981859405 -0.000732421875 -0.001373291015625
4.775351473922902 -0.00128173828125 -0.001556396484375
4.775374149659864 -0.00286865234375 -0.001312255859375
4.775396825396824 -0.00408935546875 -0.001556396484375
4.775419501133787 -0.00408935546875 -0.001556396484375
4.775442176870748 -0.00347900390625 -0.00146484375
4.77546485260771 -0.00299072265625 -0.001373291015625
4.775487528344671 -0.002349853515625 -0.001220703125
4.775510204081633 0.000274658203125 -0.001312255859375
4.775532879818593 -0.003692626953125 -0.001068115234375
4.775555555555556 -0.003326416015625 -0.001373291015625
4.775578231292517 -0.003173828125 -0.00140380859375
4.775600907029478 -0.003082275390625 -0.001129150390625
4.77562358276644 -0.003814697265625 -0.001129150390625
4.775646258503401 -0.0013427734375 -0.001312255859375
4.775668934240362 -0.00152587890625 -0.001220703125
4.775691609977324 -0.00360107421875 -0.00146484375
4.775714285714286 -0.0015869140625 -0.001190185546875
4.775736961451247 0.000274658203125 -0.0015869140625
4.775759637188209 -0.00042724609375 -0.0015869140625
4.77578231292517 -0.005126953125 -0.0015869140625
4.775804988662132 -0.0015869140625 -0.0015869140625
4.775827664399093 -0.0032958984375 -0.001556396484375
4.7758503401360555 -0.003692626953125 -0.001708984375
4.775873015873016 -0.002288818359375 -0.001983642578125
4.7758956916099775 -0.002532958984375 -0.001800537109375
4.7759183673469385 -0.00262451171875 -0.00177001953125
4.7759410430839 -0.003997802734375 -0.001739501953125
4.775963718820861 -0.00445556640625 -0.001617431640625
4.775986394557823 -0.00128173828125 -0.00140380859375
4.776009070294784 -0.003387451171875 -0.00146484375
4.776031746031745 -0.003326416015625 -0.00164794921875
4.776054421768707 0.000457763671875 -0.001495361328125
4.776077097505669 -0.00115966796875 -0.001434326171875
4.77609977324263 -0.001251220703125 -0.00140380859375
4.776122448979592 -0.002685546875 -0.00146484375
4.776145124716553 -0.003570556640625 -0.00164794921875
4.776167800453515 -0.001220703125 -0.001739501953125
4.776190476190476 -0.003631591796875 -0.001861572265625
4.776213151927438 -0.002044677734375 -0.00201416015625
4.776235827664399 -0.002227783203125 -0.001739501953125
4.776258503401361 -0.002410888671875 -0.001708984375
4.776281179138322 -0.0037841796875 -0.001556396484375
4.776303854875284 -0.002593994140625 -0.00140380859375
4.776326530612245 -0.000946044921875 -0.00164794921875
4.776349206349207 -0.001800537109375 -0.001800537109375
4.776371882086168 -0.003875732421875 -0.001495361328125
4.776394557823129 0.0013427734375 -0.001678466796875
4.776417233560091 -0.0015869140625 -0.001739501953125
4.776439909297052 -0.00128173828125 -0.001708984375
4.776462585034014 -0.000396728515625 -0.00152587890625
4.776485260770976 -0.002166748046875 -0.001556396484375
4.776507936507937 0.00030517578125 -0.001617431640625
4.776530612244898 -0.003448486328125 -0.001708984375
4.77655328798186 -0.001739501953125 -0.001800537109375
4.7765759637188205 -0.002685546875 -0.00140380859375
4.7765986394557824 -0.002960205078125 -0.001373291015625
4.776621315192744 -0.0048828125 -0.001800537109375
4.7766439909297045 -0.003753662109375 -0.001983642578125
4.7766666666666655 -0.0003662109375 -0.001739501953125
4.776689342403628 -0.002777099609375 -0.001495361328125
4.776712018140588 -0.0035400390625 -0.001617431640625
4.776734693877551 -0.001983642578125 -0.002044677734375
4.776757369614512 -0.0018310546875 -0.0020751953125
4.776780045351473 -0.00067138671875 -0.001678466796875
4.776802721088435 -0.001434326171875 -0.0018310546875
4.776825396825397 -0.000579833984375 -0.0018310546875
4.776848072562358 -0.004913330078125 -0.002044677734375
4.77687074829932 -0.001312255859375 -0.001922607421875
4.776893424036281 -0.00299072265625 -0.001983642578125
4.776916099773242 -0.000732421875 -0.001617431640625
4.776938775510204 -0.0008544921875 -0.001617431640625
4.776961451247166 -0.0042724609375 -0.00189208984375
4.776984126984127 -0.000732421875 -0.001861572265625
4.777006802721089 -0.002899169921875 -0.002044677734375
4.77702947845805 -0.0020751953125 -0.001983642578125
4.777052154195012 -0.003387451171875 -0.00213623046875
4.777074829931973 0.001312255859375 -0.002105712890625
4.7770975056689355 0.002044677734375 -0.0020751953125
4.777120181405896 0.001495361328125 -0.001983642578125
4.777142857142858 -0.00262451171875 -0.002197265625
4.777165532879819 -0.003997802734375 -0.00238037109375
4.77718820861678 3.0517578125e-05 -0.002166748046875
4.7772108843537415 -0.001495361328125 -0.002227783203125
4.777233560090703 -0.00274658203125 -0.0023193359375
4.777256235827664 -0.00311279296875 -0.002288818359375
4.7772789115646255 -0.00274658203125 -0.002288818359375
4.777301587301587 0.0015869140625 -0.00238037109375
4.777324263038548 -0.001373291015625 -0.002349853515625
4.77734693877551 -0.00274658203125 -0.0023193359375
4.777369614512471 0.00177001953125 -0.002410888671875
4.777392290249433 -0.003692626953125 -0.002197265625
4.777414965986393 -0.003326416015625 -0.00244140625
4.777437641723356 -0.00299072265625 -0.00250244140625
4.777460317460317 -0.002716064453125 -0.00262451171875
4.777482993197279 -0.002227783203125 -0.00238037109375
4.77750566893424 -0.003387451171875 -0.002655029296875
4.777528344671202 -0.002685546875 -0.002410888671875
4.777551020408163 -0.001373291015625 -0.002471923828125
4.777573696145125 -0.00054931640625 -0.00250244140625
4.777596371882086 -0.00347900390625 -0.002227783203125
4.777619047619048 -0.003387451171875 -0.002227783203125
4.777641723356009 -3.0517578125e-05 -0.0023193359375
4.777664399092971 0.00079345703125 -0.002197265625
4.777687074829932 -0.002716064453125 -0.002197265625
4.777709750566894 -0.002044677734375 -0.002166748046875
4.777732426303856 -0.0018310546875 -0.001739501953125
4.777755102040817 0.000823974609375 -0.001617431640625
4.777777777777778 0.00103759765625 -0.001617431640625
4.77780045351474 -0.004913330078125 -0.002471923828125
4.777823129251701 -0.002227783203125 -0.00238037109375
4.777845804988663 -0.001953125 -0.002166748046875
4.777868480725624 -0.00091552734375 -0.002288818359375
4.777891156462585 -0.00030517578125 -0.002349853515625
4.777913832199546 -0.000579833984375 -0.002471923828125
4.777936507936508 0.0009765625 -0.00244140625
4.7779591836734685 0.000823974609375 -0.002410888671875
4.77798185941043 -0.001434326171875 -0.002227783203125
4.778004535147392 -0.001800537109375 -0.00244140625
4.7780272108843524 -0.0018310546875 -0.00274658203125
4.778049886621315 -0.00091552734375 -0.002777099609375
4.778072562358276 -0.00555419921875 -0.002777099609375
4.778095238095238 -0.001312255859375 -0.002471923828125
4.778117913832199 -0.00067138671875 -0.002410888671875
4.778140589569161 -0.001953125 -0.002288818359375
4.778163265306121 -0.00067138671875 -0.00244140625
4.778185941043084 -0.004150390625 -0.002471923828125
4.778208616780045 -0.00372314453125 -0.0025634765625
4.778231292517007 -0.00103759765625 -0.002349853515625
4.778253968253968 -0.001861572265625 -0.002227783203125
4.77827664399093 -0.00189208984375 -0.00262451171875
4.77829931972789 -0.001495361328125 -0.002593994140625
4.778321995464853 0.00079345703125 -0.002227783203125
4.778344671201814 -0.00335693359375 -0.00225830078125
4.778367346938776 -0.002685546875 -0.00250244140625
4.778390022675737 0.000701904296875 -0.00244140625
4.778412698412699 -0.000640869140625 -0.00262451171875
4.77843537414966 -0.0030517578125 -0.002593994140625
4.778458049886622 -0.003143310546875 -0.002593994140625
4.7784807256235835 -0.000823974609375 -0.002899169921875
4.7785034013605445 -0.0010986328125 -0.002593994140625
4.7785260770975055 -0.004638671875 -0.002685546875
4.7785487528344675 -0.002960205078125 -0.00286865234375
4.7785714285714285 -0.0037841796875 -0.00286865234375
4.77859410430839 -0.002197265625 -0.00238037109375
4.778616780045351 -0.006439208984375 -0.00238037109375
4.778639455782312 -0.005889892578125 -0.002410888671875
4.778662131519273 -0.000579833984375 -0.002716064453125
4.778684807256236 -0.003570556640625 -0.002777099609375
4.778707482993196 -0.004638671875 -0.00250244140625
4.778730158730159 -0.004486083984375 -0.002685546875
4.77875283446712 0.001068115234375 -0.002777099609375
4.778775510204081 0.0025634765625 -0.002838134765625
4.778798185941043 0.002288818359375 -0.002838134765625
4.778820861678004 -0.0032958984375 -0.002777099609375
4.778843537414966 -0.002105712890625 -0.002838134765625
4.778866213151927 0.001312255859375 -0.002838134765625
4.778888888888889 -0.00115966796875 -0.002899169921875
4.77891156462585 -0.003204345703125 -0.0025634765625
4.778934240362812 -0.001434326171875 -0.0029296875
4.778956916099773 0.002532958984375 -0.003173828125
4.778979591836735 0.0020751953125 -0.003204345703125
4.779002267573696 -0.002655029296875 -0.003082275390625
4.779024943310658 -0.00372314453125 -0.002471923828125
4.779047619047619 -0.00433349609375 -0.002685546875
4.779070294784581 -0.001190185546875 -0.002593994140625
4.779092970521542 -0.002105712890625 -0.002685546875
4.779115646258504 -0.00262451171875 -0.0029296875
4.779138321995465 -0.002532958984375 -0.0029296875
4.7791609977324265 -0.001434326171875 -0.002716064453125
4.779183673469388 -0.000946044921875 -0.003082275390625
4.779206349206349 -0.002410888671875 -0.00311279296875
4.7792290249433105 -0.0025634765625 -0.0028076171875
4.779251700680272 0.0001220703125 -0.002960205078125
4.779274376417233 -0.00445556640625 -0.002899169921875
4.779297052154195 0.000213623046875 -0.0030517578125
4.779319727891156 -0.000335693359375 -0.003082275390625
4.779342403628118 -0.004852294921875 -0.003143310546875
4.779365079365079 -0.00238037109375 -0.0029296875
4.779387755102041 -0.0023193359375 -0.002716064453125
4.779410430839001 -0.002105712890625 -0.0028076171875
4.779433106575964 0.000885009765625 -0.002899169921875
4.779455782312925 -0.00201416015625 -0.0029296875
4.779478458049887 -0.001983642578125 -0.0029296875
4.779501133786848 0.001953125 -0.003265380859375
4.77952380952381 -0.003143310546875 -0.00311279296875
4.77954648526077 0.000396728515625 -0.0030517578125
4.779569160997732 0.000762939453125 -0.003173828125
4.779591836734694 -0.0018310546875 -0.003173828125
4.779614512471655 -0.00531005859375 -0.0028076171875
4.779637188208617 -0.003692626953125 -0.0030517578125
4.779659863945578 -0.003387451171875 -0.0030517578125
4.77968253968254 -0.00189208984375 -0.003021240234375
4.779705215419501 -9.1552734375e-05 -0.00311279296875
4.779727891156464 0.0003662109375 -0.003204345703125
4.779750566893424 -0.001556396484375 -0.00323486328125
4.779773242630386 -0.00067138671875 -0.00299072265625
4.779795918367347 -0.003814697265625 -0.0032958984375
4.7798185941043085 -0.003662109375 -0.003326416015625
4.77984126984127 0.00177001953125 -0.003265380859375
4.779863945578232 -0.0013427734375 -0.003143310546875
4.779886621315192 -0.0029296875 -0.003326416015625
4.7799092970521535 -0.0006103515625 -0.003509521484375
4.779931972789115 -0.0023193359375 -0.00347900390625
4.779954648526076 -0.004608154296875 -0.003448486328125
4.779977324263038 -0.0048828125 -0.00341796875
4.78 0.001434326171875 -0.00335693359375
4.78002267573696 -0.003631591796875 -0.003265380859375
4.780045351473923 -0.001678466796875 -0.00311279296875
4.780068027210884 -0.001708984375 -0.0035400390625
4.780090702947846 0.001312255859375 -0.003753662109375
4.780113378684807 -0.00390625 -0.0037841796875
4.780136054421769 -0.00396728515625 -0.003326416015625
4.780158730158729 -0.003570556640625 -0.0032958984375
4.780181405895692 -0.00018310546875 -0.003570556640625
4.780204081632653 -3.0517578125e-05 -0.003936767578125
4.780226757369615 0.00238037109375 -0.003875732421875
4.780249433106576 -0.00115966796875 -0.0037841796875
4.780272108843538 0.000152587890625 -0.00384521484375
4.780294784580499 -0.003875732421875 -0.003814697265625
4.780317460317461 -0.0045166015625 -0.003814697265625
4.780340136054422 0.00164794921875 -0.00396728515625
4.780362811791383 0.00164794921875 -0.003387451171875
4.780385487528345 -0.00250244140625 -0.003570556640625
4.780408163265306 -0.00323486328125 -0.003814697265625
4.780430839002268 -0.000823974609375 -0.00347900390625
4.780453514739229 -0.0009765625 -0.003326416015625
4.780476190476191 -0.0032958984375 -0.003631591796875
4.780498866213152 -0.003326416015625 -0.003662109375
4.7805215419501135 -0.00177001953125 -0.003936767578125
4.780544217687074 0.0003662109375 -0.003875732421875
4.780566893424036 -0.0009765625 -0.0037841796875
4.7805895691609965 9.1552734375e-05 -0.00384521484375
4.780612244897959 -0.001220703125 -0.003631591796875
4.78063492063492 0.0 -0.003997802734375
4.780657596371881 0.00030517578125 -0.004058837890625
4.780680272108843 -0.000885009765625 -0.00390625
4.780702947845805 -0.000579833984375 -0.00390625
4.780725623582766 -0.0009765625 -0.003997802734375
4.780748299319728 0.002471923828125 -0.0037841796875
4.780770975056689 -0.001739501953125 -0.00384521484375
4.780793650793651 -0.0018310546875 -0.003936767578125
4.780816326530612 -0.0030517578125 -0.003936767578125
4.780839002267574 -0.00311279296875 -0.00390625
4.780861678004535 -0.00274658203125 -0.003814697265625
4.780884353741497 -0.000946044921875 -0.0037841796875
4.780907029478458 0.00079345703125 -0.003753662109375
4.78092970521542 -0.00115966796875 -0.00372314453125
4.780952380952381 0.0003662109375 -0.003875732421875
4.780975056689344 -0.0032958984375 -0.003997802734375
4.780997732426304 -0.0037841796875 -0.003997802734375
4.781020408163266 -0.00164794921875 -0.003997802734375
4.781043083900227 -0.00067138671875 -0.004150390625
4.781065759637189 -0.0008544921875 -0.004058837890625
4.78108843537415 -0.00341796875 -0.004058837890625
4.781111111111112 0.0001220703125 -0.0040283203125
4.7811337868480726 -0.00054931640625 -0.0037841796875
4.781156462585034 0.00079345703125 -0.003875732421875
4.7811791383219955 0.001007080078125 -0.00390625
4.7812018140589565 0.001983642578125 -0.004058837890625
4.781224489795918 0.000396728515625 -0.0040283203125
4.78124716553288 -0.001220703125 -0.003997802734375
4.7812698412698404 -0.001708984375 -0.004180908203125
4.7812925170068015 -0.001068115234375 -0.004364013671875
4.781315192743764 -9.1552734375e-05 -0.004119873046875
4.781337868480724 0.0 -0.00408935546875
4.781360544217687 -0.000732421875 -0.00433349609375
4.781383219954648 -0.002532958984375 -0.004241943359375
4.781405895691609 -0.00250244140625 -0.004150390625
4.781428571428571 -0.000885009765625 -0.00408935546875
4.781451247165533 0.00067138671875 -0.003936767578125
4.781473922902494 0.00048828125 -0.0040283203125
4.781496598639456 -0.002349853515625 -0.00384521484375
4.781519274376417 -0.002532958984375 -0.00384521484375
4.781541950113378 -0.0015869140625 -0.00408935546875
4.78156462585034 0.00201416015625 -0.00421142578125
4.781587301587302 -0.001922607421875 -0.004302978515625
4.781609977324263 -0.001556396484375 -0.00439453125
4.781632653061225 -0.001739501953125 -0.004119873046875
4.781655328798186 -0.001861572265625 -0.004058837890625
4.781678004535148 -0.001861572265625 -0.004058837890625
4.781700680272109 -0.00189208984375 -0.004364013671875
4.7817233560090715 -0.001190185546875 -0.004486083984375
4.781746031746032 -0.001800537109375 -0.00421142578125
4.7817687074829935 -0.00018310546875 -0.00439453125
4.781791383219955 -0.00067138671875 -0.004119873046875
4.7818140589569165 -0.0006103515625 -0.003936767578125
4.781836734693877 0.0025634765625 -0.00390625
4.781859410430839 0.001495361328125 -0.003875732421875
4.7818820861678 -0.00592041015625 -0.0037841796875
4.781904761904761 0.0018310546875 -0.003753662109375
4.781927437641723 -0.001922607421875 -0.004364013671875
4.781950113378684 -0.00341796875 -0.00433349609375
4.781972789115646 -0.002044677734375 -0.004058837890625
4.781995464852607 -0.003326416015625 -0.003875732421875
4.782018140589569 -0.003448486328125 -0.003875732421875
4.782040816326529 -0.002410888671875 -0.004058837890625
4.782063492063492 -0.000518798828125 -0.004119873046875
4.782086167800453 -0.00286865234375 -0.0040283203125
4.782108843537415 -0.00189208984375 -0.004058837890625
4.782131519274376 -0.001434326171875 -0.00408935546875
4.782154195011338 -0.000274658203125 -0.004180908203125
4.782176870748299 -0.000244140625 -0.004547119140625
4.782199546485261 -0.00030517578125 -0.00457763671875
4.782222222222222 -0.0006103515625 -0.004608154296875
4.782244897959184 -0.001556396484375 -0.00421142578125
4.782267573696145 -0.00128173828125 -0.004150390625
4.782290249433107 -0.00164794921875 -0.004364013671875
4.782312925170068 -0.001953125 -0.00439453125
4.78233560090703 -0.003204345703125 -0.004425048828125
4.782358276643992 -0.003265380859375 -0.00445556640625
4.782380952380953 -0.0006103515625 -0.004638671875
4.782403628117914 0.002471923828125 -0.00439453125
4.782426303854876 -0.0042724609375 -0.004364013671875
4.782448979591837 -0.004486083984375 -0.004669189453125
4.7824716553287985 0.0006103515625 -0.00445556640625
4.78249433106576 0.00030517578125 -0.004425048828125
4.782517006802721 0.00177001953125 -0.00445556640625
4.7825396825396815 0.0015869140625 -0.00445556640625
4.782562358276644 3.0517578125e-05 -0.00439453125
4.7825850340136045 -0.000701904296875 -0.004486083984375
4.782607709750567 -0.00299072265625 -0.0045166015625
4.782630385487528 -0.001617431640625 -0.0047607421875
4.782653061224489 -0.001678466796875 -0.00439453125
4.782675736961451 0.003173828125 -0.00433349609375
4.782698412698413 0.003265380859375 -0.004364013671875
4.782721088435374 -0.002044677734375 -0.00469970703125
4.782743764172336 -6.103515625e-05 -0.004547119140625
4.782766439909297 -0.001983642578125 -0.004486083984375
4.782789115646257 -0.0008544921875 -0.004486083984375
4.78281179138322 -0.00079345703125 -0.004608154296875
4.782834467120181 -0.00054931640625 -0.004852294921875
4.782857142857143 -0.00164794921875 -0.00439453125
4.782879818594104 -0.001708984375 -0.00439453125
4.782902494331066 -0.00189208984375 -0.004425048828125
4.782925170068026 -0.00115966796875 -0.004608154296875
4.782947845804989 -0.0029296875 -0.00469970703125
4.78297052154195 -0.003875732421875 -0.0045166015625
4.782993197278912 0.00091552734375 -0.004425048828125
4.783015873015873 -0.002685546875 -0.004669189453125
4.783038548752835 -0.002899169921875 -0.004669189453125
4.783061224489796 -0.00042724609375 -0.004302978515625
4.783083900226758 -0.000213623046875 -0.00433349609375
4.7831065759637195 0.001129150390625 -0.00433349609375
4.78312925170068 -0.00103759765625 -0.00457763671875
4.7831519274376415 -0.00469970703125 -0.0048828125
4.783174603174603 0.003082275390625 -0.0048828125
4.783197278911564 0.002960205078125 -0.004425048828125
4.783219954648526 0.0025634765625 -0.004425048828125
4.783242630385487 -0.00048828125 -0.0045166015625
4.783265306122448 -0.00201416015625 -0.00445556640625
4.783287981859409 -0.000701904296875 -0.004638671875
4.783310657596372 -0.00103759765625 -0.00457763671875
4.783333333333333 -0.001708984375 -0.004913330078125
4.783356009070295 9.1552734375e-05 -0.0047607421875
4.783378684807256 0.0001220703125 -0.004730224609375
4.783401360544217 -0.00164794921875 -0.004486083984375
4.783424036281179 -0.00262451171875 -0.00445556640625
4.783446712018141 -0.00103759765625 -0.00469970703125
4.783469387755102 -0.000640869140625 -0.0048828125
4.783492063492064 -0.000518798828125 -0.00469970703125
4.783514739229025 0.0010986328125 -0.0048828125
4.783537414965987 0.00128173828125 -0.004913330078125
4.783560090702948 -0.0032958984375 -0.004791259765625
4.783582766439909 -0.00201416015625 -0.00469970703125
4.783605442176871 -0.001373291015625 -0.00457763671875
4.783628117913832 -0.00372314453125 -0.00445556640625
4.783650793650794 0.000457763671875 -0.00433349609375
4.783673469387755 -0.00067138671875 -0.00445556640625
4.783696145124717 -0.00140380859375 -0.004058837890625
4.783718820861678 -0.00152587890625 -0.004058837890625
4.78374149659864 -0.003509521484375 -0.004302978515625
4.783764172335601 -0.00482177734375 -0.00457763671875
4.783786848072562 -0.00201416015625 -0.00445556640625
4.783809523809524 6.103515625e-05 -0.004241943359375
4.7838321995464845 0.000335693359375 -0.004302978515625
4.783854875283446 -0.001800537109375 -0.004364013671875
4.783877551020408 -0.0020751953125 -0.004364013671875
4.7839002267573685 -0.002166748046875 -0.004180908203125
4.783922902494331 -0.00335693359375 -0.00445556640625
4.783945578231292 -0.001861572265625 -0.004547119140625
4.783968253968254 0.000885009765625 -0.004119873046875
4.783990929705215 -0.002410888671875 -0.004180908203125
4.784013605442177 -0.002105712890625 -0.004119873046875
4.784036281179137 0.001220703125 -0.004364013671875
4.7840589569161 0.0008544921875 -0.004364013671875
4.784081632653061 -0.003936767578125 -0.004119873046875
4.784104308390023 -0.001708984375 -0.00421142578125
4.784126984126984 -0.002655029296875 -0.0042724609375
4.784149659863946 -0.000244140625 -0.004364013671875
4.784172335600906 0.00042724609375 -0.004180908203125
4.784195011337869 -0.001007080078125 -0.004058837890625
4.78421768707483 -0.001220703125 -0.0040283203125
4.784240362811792 0.000152587890625 -0.003997802734375
4.784263038548753 0.0020751953125 -0.004180908203125
4.784285714285715 -0.00408935546875 -0.004180908203125
4.784308390022676 0.000701904296875 -0.004180908203125
4.784331065759638 0.003997802734375 -0.003997802734375
4.7843537414965995 -0.00439453125 -0.00421142578125
4.78437641723356 -0.00164794921875 -0.003753662109375
4.784399092970522 -0.001495361328125 -0.0037841796875
4.784421768707483 -0.0020751953125 -0.004150390625
4.7844444444444445 -0.002105712890625 -0.0040283203125
4.7844671201814055 -0.001739501953125 -0.00396728515625
4.784489795918368 0.00054931640625 -0.003936767578125
4.784512471655328 -0.001495361328125 -0.004302978515625
4.7845351473922895 0.00067138671875 -0.003814697265625
